offset,dose,field_size,depth
-14.991295,0.197318,5,20
-14.966284,0.197906,5,20
-14.941273,0.198495,5,20
-14.916263,0.199083,5,20
-14.891252,0.199672,5,20
-14.866241,0.20026,5,20
-14.841231,0.200849,5,20
-14.81622,0.201437,5,20
-14.791209,0.202026,5,20
-14.766199,0.202614,5,20
-14.741188,0.203358,5,20
-14.716177,0.204241,5,20
-14.691166,0.205123,5,20
-14.666156,0.206006,5,20
-14.641145,0.206889,5,20
-14.616134,0.207772,5,20
-14.591124,0.208654,5,20
-14.566113,0.209537,5,20
-14.541102,0.21042,5,20
-14.516092,0.211303,5,20
-14.491081,0.212342,5,20
-14.46607,0.213519,5,20
-14.44106,0.214696,5,20
-14.416049,0.215873,5,20
-14.391038,0.21705,5,20
-14.366028,0.218227,5,20
-14.341017,0.219404,5,20
-14.316006,0.220581,5,20
-14.290996,0.221758,5,20
-14.265985,0.222935,5,20
-14.240974,0.223995,5,20
-14.215964,0.224955,5,20
-14.190953,0.225916,5,20
-14.165942,0.226876,5,20
-14.140931,0.227836,5,20
-14.115921,0.228796,5,20
-14.09091,0.229756,5,20
-14.065899,0.230717,5,20
-14.040889,0.231677,5,20
-14.015878,0.232637,5,20
-13.990867,0.233671,5,20
-13.965857,0.234768,5,20
-13.940846,0.235865,5,20
-13.915835,0.236962,5,20
-13.890825,0.238059,5,20
-13.865814,0.239156,5,20
-13.840803,0.240253,5,20
-13.815793,0.24135,5,20
-13.790782,0.242447,5,20
-13.765771,0.243545,5,20
-13.740761,0.244685,5,20
-13.71575,0.245862,5,20
-13.690739,0.247039,5,20
-13.665729,0.248216,5,20
-13.640718,0.249393,5,20
-13.615707,0.25057,5,20
-13.590696,0.251747,5,20
-13.565686,0.252924,5,20
-13.540675,0.254101,5,20
-13.515664,0.255278,5,20
-13.490654,0.256455,5,20
-13.465643,0.257632,5,20
-13.440632,0.258809,5,20
-13.415622,0.259986,5,20
-13.390611,0.261163,5,20
-13.3656,0.26234,5,20
-13.34059,0.263517,5,20
-13.315579,0.264694,5,20
-13.290568,0.265871,5,20
-13.265558,0.267048,5,20
-13.240547,0.268062,5,20
-13.215536,0.268945,5,20
-13.190526,0.269827,5,20
-13.165515,0.27071,5,20
-13.140504,0.271593,5,20
-13.115494,0.272476,5,20
-13.090483,0.273358,5,20
-13.065472,0.274241,5,20
-13.040462,0.275124,5,20
-13.015451,0.276006,5,20
-12.99044,0.277053,5,20
-12.965429,0.27823,5,20
-12.940419,0.279407,5,20
-12.915408,0.280584,5,20
-12.890397,0.281761,5,20
-12.865387,0.282938,5,20
-12.840376,0.284115,5,20
-12.815365,0.285292,5,20
-12.790355,0.286469,5,20
-12.765344,0.287646,5,20
-12.740333,0.288823,5,20
-12.715323,0.29,5,20
-12.690312,0.291177,5,20
-12.665301,0.292354,5,20
-12.640291,0.293531,5,20
-12.61528,0.294708,5,20
-12.590269,0.295885,5,20
-12.565259,0.297062,5,20
-12.540248,0.298239,5,20
-12.515237,0.299416,5,20
-12.490227,0.300971,5,20
-12.465216,0.302815,5,20
-12.440205,0.30466,5,20
-12.415194,0.306505,5,20
-12.390184,0.30835,5,20
-12.365173,0.310194,5,20
-12.340162,0.312039,5,20
-12.315152,0.313884,5,20
-12.290141,0.315728,5,20
-12.26513,0.317573,5,20
-12.24012,0.319326,5,20
-12.215109,0.32101,5,20
-12.190098,0.322693,5,20
-12.165088,0.324377,5,20
-12.140077,0.326061,5,20
-12.115066,0.327745,5,20
-12.090056,0.329428,5,20
-12.065045,0.331112,5,20
-12.040034,0.332796,5,20
-12.015024,0.33448,5,20
-11.990013,0.336087,5,20
-11.965002,0.337638,5,20
-11.939992,0.33919,5,20
-11.914981,0.340741,5,20
-11.88997,0.342292,5,20
-11.864959,0.343843,5,20
-11.839949,0.345394,5,20
-11.814938,0.346945,5,20
-11.789927,0.348496,5,20
-11.764917,0.350048,5,20
-11.739906,0.351676,5,20
-11.714895,0.353362,5,20
-11.689885,0.355048,5,20
-11.664874,0.356733,5,20
-11.639863,0.358419,5,20
-11.614853,0.360104,5,20
-11.589842,0.36179,5,20
-11.564831,0.363475,5,20
-11.539821,0.365161,5,20
-11.51481,0.366846,5,20
-11.489799,0.368454,5,20
-11.464789,0.370005,5,20
-11.439778,0.371556,5,20
-11.414767,0.373107,5,20
-11.389757,0.374658,5,20
-11.364746,0.376209,5,20
-11.339735,0.37776,5,20
-11.314724,0.379312,5,20
-11.289714,0.380863,5,20
-11.264703,0.382414,5,20
-11.239692,0.384044,5,20
-11.214682,0.385729,5,20
-11.189671,0.387415,5,20
-11.16466,0.389101,5,20
-11.13965,0.390786,5,20
-11.114639,0.392472,5,20
-11.089628,0.394157,5,20
-11.064618,0.395843,5,20
-11.039607,0.397528,5,20
-11.014596,0.399214,5,20
-10.989586,0.400771,5,20
-10.964575,0.40224,5,20
-10.939564,0.403709,5,20
-10.914554,0.405177,5,20
-10.889543,0.406646,5,20
-10.864532,0.408115,5,20
-10.839522,0.409584,5,20
-10.814511,0.411052,5,20
-10.7895,0.412521,5,20
-10.764489,0.41399,5,20
-10.739479,0.415635,5,20
-10.714468,0.417401,5,20
-10.689457,0.419166,5,20
-10.664447,0.420932,5,20
-10.639436,0.422697,5,20
-10.614425,0.424463,5,20
-10.589415,0.426228,5,20
-10.564404,0.427994,5,20
-10.539393,0.429759,5,20
-10.514383,0.431525,5,20
-10.489372,0.433868,5,20
-10.464361,0.436596,5,20
-10.439351,0.439324,5,20
-10.41434,0.442052,5,20
-10.389329,0.44478,5,20
-10.364319,0.447508,5,20
-10.339308,0.450236,5,20
-10.314297,0.452965,5,20
-10.289287,0.455693,5,20
-10.264276,0.458421,5,20
-10.239265,0.461101,5,20
-10.214254,0.463749,5,20
-10.189244,0.466397,5,20
-10.164233,0.469045,5,20
-10.139222,0.471693,5,20
-10.114212,0.474342,5,20
-10.089201,0.47699,5,20
-10.06419,0.479638,5,20
-10.03918,0.482286,5,20
-10.014169,0.484934,5,20
-9.989158,0.487581,5,20
-9.964148,0.490227,5,20
-9.939137,0.492872,5,20
-9.914126,0.495518,5,20
-9.889116,0.498164,5,20
-9.864105,0.50081,5,20
-9.839094,0.503455,5,20
-9.814084,0.506101,5,20
-9.789073,0.508747,5,20
-9.764062,0.511393,5,20
-9.739052,0.51404,5,20
-9.714041,0.516688,5,20
-9.68903,0.519336,5,20
-9.664019,0.521984,5,20
-9.639009,0.524633,5,20
-9.613998,0.527281,5,20
-9.588987,0.529929,5,20
-9.563977,0.532577,5,20
-9.538966,0.535225,5,20
-9.513955,0.537874,5,20
-9.488945,0.540522,5,20
-9.463934,0.54317,5,20
-9.438923,0.545818,5,20
-9.413913,0.548466,5,20
-9.388902,0.551115,5,20
-9.363891,0.553763,5,20
-9.338881,0.556411,5,20
-9.31387,0.559059,5,20
-9.288859,0.561707,5,20
-9.263849,0.564356,5,20
-9.238838,0.567003,5,20
-9.213827,0.569651,5,20
-9.188817,0.572298,5,20
-9.163806,0.574946,5,20
-9.138795,0.577593,5,20
-9.113784,0.580241,5,20
-9.088774,0.582888,5,20
-9.063763,0.585536,5,20
-9.038752,0.588184,5,20
-9.013742,0.590831,5,20
-8.988731,0.593612,5,20
-8.96372,0.596473,5,20
-8.93871,0.599333,5,20
-8.913699,0.602194,5,20
-8.888688,0.605055,5,20
-8.863678,0.607916,5,20
-8.838667,0.610776,5,20
-8.813656,0.613637,5,20
-8.788646,0.616498,5,20
-8.763635,0.619358,5,20
-8.738624,0.622085,5,20
-8.713614,0.624733,5,20
-8.688603,0.627382,5,20
-8.663592,0.63003,5,20
-8.638582,0.632678,5,20
-8.613571,0.635326,5,20
-8.58856,0.637974,5,20
-8.563549,0.640623,5,20
-8.538539,0.643271,5,20
-8.513528,0.645919,5,20
-8.488517,0.65016,5,20
-8.463507,0.65532,5,20
-8.438496,0.660479,5,20
-8.413485,0.665639,5,20
-8.388475,0.670798,5,20
-8.363464,0.675958,5,20
-8.338453,0.681117,5,20
-8.313443,0.686277,5,20
-8.288432,0.691436,5,20
-8.263421,0.696596,5,20
-8.238411,0.701604,5,20
-8.2134,0.706526,5,20
-8.188389,0.711448,5,20
-8.163379,0.71637,5,20
-8.138368,0.721293,5,20
-8.113357,0.726215,5,20
-8.088347,0.731137,5,20
-8.063336,0.736059,5,20
-8.038325,0.740982,5,20
-8.013314,0.745904,5,20
-7.988304,0.750738,5,20
-7.963293,0.755523,5,20
-7.938282,0.760309,5,20
-7.913272,0.765094,5,20
-7.888261,0.769879,5,20
-7.86325,0.774665,5,20
-7.83824,0.77945,5,20
-7.813229,0.784236,5,20
-7.788218,0.789021,5,20
-7.763208,0.793806,5,20
-7.738197,0.798542,5,20
-7.713186,0.803249,5,20
-7.688176,0.807957,5,20
-7.663165,0.812665,5,20
-7.638154,0.817373,5,20
-7.613144,0.822081,5,20
-7.588133,0.826789,5,20
-7.563122,0.831497,5,20
-7.538112,0.836205,5,20
-7.513101,0.840913,5,20
-7.48809,0.845811,5,20
-7.463079,0.85081,5,20
-7.438069,0.85581,5,20
-7.413058,0.86081,5,20
-7.388047,0.865809,5,20
-7.363037,0.870809,5,20
-7.338026,0.875809,5,20
-7.313015,0.880808,5,20
-7.288005,0.885808,5,20
-7.262994,0.890808,5,20
-7.237983,0.895616,5,20
-7.212973,0.900324,5,20
-7.187962,0.905032,5,20
-7.162951,0.90974,5,20
-7.137941,0.914448,5,20
-7.11293,0.919156,5,20
-7.087919,0.923864,5,20
-7.062909,0.928571,5,20
-7.037898,0.933279,5,20
-7.012887,0.937987,5,20
-6.987877,0.942835,5,20
-6.962866,0.947755,5,20
-6.937855,0.952674,5,20
-6.912844,0.957594,5,20
-6.887834,0.962514,5,20
-6.862823,0.967434,5,20
-6.837812,0.972353,5,20
-6.812802,0.977273,5,20
-6.787791,0.982193,5,20
-6.76278,0.987113,5,20
-6.73777,0.991945,5,20
-6.712759,0.996733,5,20
-6.687748,1.001521,5,20
-6.662738,1.006308,5,20
-6.637727,1.011096,5,20
-6.612716,1.015884,5,20
-6.587706,1.020672,5,20
-6.562695,1.02546,5,20
-6.537684,1.030247,5,20
-6.512674,1.035035,5,20
-6.487663,1.042038,5,20
-6.462652,1.05014,5,20
-6.437642,1.058242,5,20
-6.412631,1.066344,5,20
-6.38762,1.074446,5,20
-6.362609,1.082548,5,20
-6.337599,1.09065,5,20
-6.312588,1.098752,5,20
-6.287577,1.106854,5,20
-6.262567,1.114956,5,20
-6.237556,1.122357,5,20
-6.212545,1.129416,5,20
-6.187535,1.136476,5,20
-6.162524,1.143535,5,20
-6.137513,1.150594,5,20
-6.112503,1.157654,5,20
-6.087492,1.164713,5,20
-6.062481,1.171772,5,20
-6.037471,1.178832,5,20
-6.01246,1.185891,5,20
-5.987449,1.193096,5,20
-5.962439,1.200369,5,20
-5.937428,1.207643,5,20
-5.912417,1.214917,5,20
-5.887407,1.222191,5,20
-5.862396,1.229464,5,20
-5.837385,1.236738,5,20
-5.812374,1.244012,5,20
-5.787364,1.251285,5,20
-5.762353,1.258559,5,20
-5.737342,1.265687,5,20
-5.712332,1.272746,5,20
-5.687321,1.279806,5,20
-5.66231,1.286865,5,20
-5.6373,1.293924,5,20
-5.612289,1.300984,5,20
-5.587278,1.308043,5,20
-5.562268,1.315102,5,20
-5.537257,1.322162,5,20
-5.512246,1.329221,5,20
-5.487236,1.337197,5,20
-5.462225,1.345593,5,20
-5.437214,1.353989,5,20
-5.412204,1.362386,5,20
-5.387193,1.370782,5,20
-5.362182,1.379178,5,20
-5.337172,1.387574,5,20
-5.312161,1.39597,5,20
-5.28715,1.404367,5,20
-5.262139,1.412763,5,20
-5.237129,1.423079,5,20
-5.212118,1.434257,5,20
-5.187107,1.445436,5,20
-5.162097,1.456615,5,20
-5.137086,1.467794,5,20
-5.112075,1.478973,5,20
-5.087065,1.490151,5,20
-5.062054,1.50133,5,20
-5.037043,1.512509,5,20
-5.012033,1.523688,5,20
-4.987022,1.535015,5,20
-4.962011,1.546408,5,20
-4.937001,1.557802,5,20
-4.91199,1.569195,5,20
-4.886979,1.580588,5,20
-4.861969,1.591981,5,20
-4.836958,1.603374,5,20
-4.811947,1.614767,5,20
-4.786937,1.62616,5,20
-4.761926,1.637553,5,20
-4.736915,1.648797,5,20
-4.711904,1.659976,5,20
-4.686894,1.671155,5,20
-4.661883,1.682333,5,20
-4.636872,1.693512,5,20
-4.611862,1.704691,5,20
-4.586851,1.71587,5,20
-4.56184,1.727049,5,20
-4.53683,1.738227,5,20
-4.511819,1.749406,5,20
-4.486808,1.76746,5,20
-4.461798,1.788424,5,20
-4.436787,1.809388,5,20
-4.411776,1.830351,5,20
-4.386766,1.851315,5,20
-4.361755,1.872279,5,20
-4.336744,1.893243,5,20
-4.311734,1.914207,5,20
-4.286723,1.935171,5,20
-4.261712,1.956134,5,20
-4.236702,1.979747,5,20
-4.211691,2.004459,5,20
-4.18668,2.029171,5,20
-4.161669,2.053882,5,20
-4.136659,2.078594,5,20
-4.111648,2.103305,5,20
-4.086637,2.128017,5,20
-4.061627,2.152728,5,20
-4.036616,2.17744,5,20
-4.011605,2.202152,5,20
-3.986595,2.241753,5,20
-3.961584,2.287403,5,20
-3.936573,2.333053,5,20
-3.911563,2.378703,5,20
-3.886552,2.424353,5,20
-3.861541,2.470003,5,20
-3.836531,2.515653,5,20
-3.81152,2.561303,5,20
-3.786509,2.606953,5,20
-3.761499,2.652603,5,20
-3.736488,2.7091,5,20
-3.711477,2.769911,5,20
-3.686467,2.830722,5,20
-3.661456,2.891534,5,20
-3.636445,2.952345,5,20
-3.611434,3.013156,5,20
-3.586424,3.073967,5,20
-3.561413,3.134779,5,20
-3.536402,3.19559,5,20
-3.511392,3.256401,5,20
-3.486381,3.523819,5,20
-3.46137,3.871707,5,20
-3.43636,4.219594,5,20
-3.411349,4.567482,5,20
-3.386338,4.91537,5,20
-3.361328,5.263258,5,20
-3.336317,5.611146,5,20
-3.311306,5.959034,5,20
-3.286296,6.306922,5,20
-3.261285,6.65481,5,20
-3.236274,7.461712,5,20
-3.211264,8.443631,5,20
-3.186253,9.425551,5,20
-3.161242,10.407471,5,20
-3.136232,11.389391,5,20
-3.111221,12.371311,5,20
-3.08621,13.35323,5,20
-3.061199,14.33515,5,20
-3.036189,15.31707,5,20
-3.011178,16.29899,5,20
-2.986167,17.110343,5,20
-2.961157,17.858043,5,20
-2.936146,18.605743,5,20
-2.911135,19.353443,5,20
-2.886125,20.101142,5,20
-2.861114,20.848842,5,20
-2.836103,21.596542,5,20
-2.811093,22.344242,5,20
-2.786082,23.091942,5,20
-2.761071,23.839642,5,20
-2.736061,24.257495,5,20
-2.71105,24.554894,5,20
-2.686039,24.852294,5,20
-2.661029,25.149693,5,20
-2.636018,25.447092,5,20
-2.611007,25.744491,5,20
-2.585997,26.04189,5,20
-2.560986,26.33929,5,20
-2.535975,26.636689,5,20
-2.510964,26.934088,5,20
-2.485954,27.099552,5,20
-2.460943,27.217879,5,20
-2.435932,27.336207,5,20
-2.410922,27.454534,5,20
-2.385911,27.572862,5,20
-2.3609,27.69119,5,20
-2.33589,27.809517,5,20
-2.310879,27.927845,5,20
-2.285868,28.046172,5,20
-2.260858,28.1645,5,20
-2.235847,28.220647,5,20
-2.210836,28.255065,5,20
-2.185826,28.289484,5,20
-2.160815,28.323902,5,20
-2.135804,28.358321,5,20
-2.110794,28.392739,5,20
-2.085783,28.427158,5,20
-2.060772,28.461576,5,20
-2.035762,28.495995,5,20
-2.010751,28.530413,5,20
-1.98574,28.559666,5,20
-1.960729,28.587154,5,20
-1.935719,28.614642,5,20
-1.910708,28.642131,5,20
-1.885697,28.669619,5,20
-1.860687,28.697107,5,20
-1.835676,28.724595,5,20
-1.810665,28.752083,5,20
-1.785655,28.779571,5,20
-1.760644,28.807059,5,20
-1.735633,28.829817,5,20
-1.710623,28.850996,5,20
-1.685612,28.872174,5,20
-1.660601,28.893352,5,20
-1.635591,28.91453,5,20
-1.61058,28.935708,5,20
-1.585569,28.956886,5,20
-1.560559,28.978064,5,20
-1.535548,28.999243,5,20
-1.510537,29.020421,5,20
-1.485527,29.038676,5,20
-1.460516,29.055977,5,20
-1.435505,29.073278,5,20
-1.410494,29.090579,5,20
-1.385484,29.10788,5,20
-1.360473,29.125181,5,20
-1.335462,29.142482,5,20
-1.310452,29.159783,5,20
-1.285441,29.177084,5,20
-1.26043,29.194385,5,20
-1.23542,29.21033,5,20
-1.210409,29.225843,5,20
-1.185398,29.241355,5,20
-1.160388,29.256868,5,20
-1.135377,29.27238,5,20
-1.110366,29.287893,5,20
-1.085356,29.303405,5,20
-1.060345,29.318918,5,20
-1.035334,29.33443,5,20
-1.010324,29.349943,5,20
-0.985313,29.363842,5,20
-0.960302,29.377238,5,20
-0.935292,29.390634,5,20
-0.910281,29.404029,5,20
-0.88527,29.417425,5,20
-0.860259,29.430821,5,20
-0.835249,29.444217,5,20
-0.810238,29.457613,5,20
-0.785227,29.471009,5,20
-0.760217,29.484405,5,20
-0.735206,29.495875,5,20
-0.710195,29.50676,5,20
-0.685185,29.517644,5,20
-0.660174,29.528529,5,20
-0.635163,29.539413,5,20
-0.610153,29.550298,5,20
-0.585142,29.561183,5,20
-0.560131,29.572067,5,20
-0.535121,29.582952,5,20
-0.51011,29.593836,5,20
-0.485099,29.601999,5,20
-0.460089,29.609352,5,20
-0.435078,29.616706,5,20
-0.410067,29.62406,5,20
-0.385057,29.631413,5,20
-0.360046,29.638767,5,20
-0.335035,29.64612,5,20
-0.310024,29.653474,5,20
-0.285014,29.660828,5,20
-0.260003,29.668181,5,20
-0.234992,29.671887,5,20
-0.209982,29.674535,5,20
-0.184971,29.677184,5,20
-0.15996,29.679832,5,20
-0.13495,29.68248,5,20
-0.109939,29.685128,5,20
-0.084928,29.687776,5,20
-0.059918,29.690425,5,20
-0.034907,29.693073,5,20
-0.009896,29.695721,5,20
0.015114,29.694011,5,20
0.040125,29.691069,5,20
0.065136,29.688127,5,20
0.090146,29.685184,5,20
0.115157,29.682242,5,20
0.140168,29.679299,5,20
0.165178,29.676357,5,20
0.190189,29.673414,5,20
0.2152,29.670472,5,20
0.240211,29.667529,5,20
0.265221,29.66136,5,20
0.290232,29.654301,5,20
0.315243,29.647242,5,20
0.340253,29.640182,5,20
0.365264,29.633123,5,20
0.390275,29.626063,5,20
0.415285,29.619004,5,20
0.440296,29.611945,5,20
0.465307,29.604885,5,20
0.490317,29.597826,5,20
0.515328,29.587457,5,20
0.540339,29.576199,5,20
0.565349,29.56494,5,20
0.59036,29.553681,5,20
0.615371,29.542422,5,20
0.640381,29.531164,5,20
0.665392,29.519905,5,20
0.690403,29.508646,5,20
0.715413,29.497388,5,20
0.740424,29.486129,5,20
0.765435,29.473303,5,20
0.790446,29.460067,5,20
0.815456,29.446831,5,20
0.840467,29.433595,5,20
0.865478,29.420359,5,20
0.890488,29.407123,5,20
0.915499,29.393887,5,20
0.94051,29.380651,5,20
0.96552,29.367415,5,20
0.990531,29.354179,5,20
1.015542,29.339642,5,20
1.040552,29.324772,5,20
1.065563,29.309903,5,20
1.090574,29.295033,5,20
1.115584,29.280164,5,20
1.140595,29.265294,5,20
1.165606,29.250424,5,20
1.190616,29.235555,5,20
1.215627,29.220685,5,20
1.240638,29.205816,5,20
1.265648,29.188955,5,20
1.290659,29.1716,5,20
1.31567,29.154244,5,20
1.340681,29.136889,5,20
1.365691,29.119533,5,20
1.390702,29.102178,5,20
1.415713,29.084823,5,20
1.440723,29.067467,5,20
1.465734,29.050112,5,20
1.490745,29.032756,5,20
1.515755,29.012776,5,20
1.540766,28.992161,5,20
1.565777,28.971546,5,20
1.590787,28.950931,5,20
1.615798,28.930316,5,20
1.640809,28.909701,5,20
1.665819,28.889086,5,20
1.69083,28.868471,5,20
1.715841,28.847855,5,20
1.740851,28.82724,5,20
1.765862,28.80093,5,20
1.790873,28.773279,5,20
1.815883,28.745627,5,20
1.840894,28.717975,5,20
1.865905,28.690324,5,20
1.890915,28.662672,5,20
1.915926,28.635021,5,20
1.940937,28.607369,5,20
1.965948,28.579718,5,20
1.990958,28.552066,5,20
2.015969,28.508121,5,20
2.04098,28.460444,5,20
2.06599,28.412767,5,20
2.091001,28.36509,5,20
2.116012,28.317413,5,20
2.141022,28.269736,5,20
2.166033,28.222059,5,20
2.191044,28.174382,5,20
2.216054,28.126705,5,20
2.241065,28.079028,5,20
2.266076,28.017654,5,20
2.291086,27.953232,5,20
2.316097,27.88881,5,20
2.341108,27.824388,5,20
2.366118,27.759966,5,20
2.391129,27.695544,5,20
2.41614,27.631122,5,20
2.44115,27.566699,5,20
2.466161,27.502277,5,20
2.491172,27.437855,5,20
2.516183,27.176024,5,20
2.541193,26.871501,5,20
2.566204,26.566977,5,20
2.591215,26.262454,5,20
2.616225,25.957931,5,20
2.641236,25.653408,5,20
2.666247,25.348884,5,20
2.691257,25.044361,5,20
2.716268,24.739838,5,20
2.741279,24.435314,5,20
2.766289,23.620302,5,20
2.7913,22.698098,5,20
2.816311,21.775894,5,20
2.841321,20.853691,5,20
2.866332,19.931487,5,20
2.891343,19.009283,5,20
2.916353,18.087079,5,20
2.941364,17.164876,5,20
2.966375,16.242672,5,20
2.991385,15.320468,5,20
3.016396,14.494769,5,20
3.041407,13.688734,5,20
3.066418,12.882699,5,20
3.091428,12.076664,5,20
3.116439,11.270628,5,20
3.14145,10.464593,5,20
3.16646,9.658558,5,20
3.191471,8.852523,5,20
3.216482,8.046488,5,20
3.241492,7.240452,5,20
3.266503,6.821481,5,20
3.291514,6.478993,5,20
3.316524,6.136505,5,20
3.341535,5.794017,5,20
3.366546,5.451529,5,20
3.391556,5.109041,5,20
3.416567,4.766553,5,20
3.441578,4.424065,5,20
3.466588,4.081577,5,20
3.491599,3.73909,5,20
3.51661,3.580215,5,20
3.54162,3.456503,5,20
3.566631,3.332791,5,20
3.591642,3.209079,5,20
3.616653,3.085367,5,20
3.641663,2.961655,5,20
3.666674,2.837943,5,20
3.691685,2.714231,5,20
3.716695,2.590519,5,20
3.741706,2.466807,5,20
3.766717,2.426924,5,20
3.791727,2.402589,5,20
3.816738,2.378254,5,20
3.841749,2.353919,5,20
3.866759,2.329584,5,20
3.89177,2.305249,5,20
3.916781,2.280914,5,20
3.941791,2.256579,5,20
3.966802,2.232244,5,20
3.991813,2.207909,5,20
4.016823,2.184185,5,20
4.041834,2.160571,5,20
4.066845,2.136956,5,20
4.091855,2.113342,5,20
4.116866,2.089727,5,20
4.141877,2.066113,5,20
4.166888,2.042498,5,20
4.191898,2.018884,5,20
4.216909,1.995269,5,20
4.24192,1.971655,5,20
4.26693,1.952872,5,20
4.291941,1.934928,5,20
4.316952,1.916984,5,20
4.341962,1.89904,5,20
4.366973,1.881096,5,20
4.391984,1.863152,5,20
4.416994,1.845208,5,20
4.442005,1.827264,5,20
4.467016,1.80932,5,20
4.492026,1.791377,5,20
4.517037,1.774876,5,20
4.542048,1.758618,5,20
4.567058,1.742359,5,20
4.592069,1.726101,5,20
4.61708,1.709842,5,20
4.64209,1.693584,5,20
4.667101,1.677326,5,20
4.692112,1.661067,5,20
4.717123,1.644809,5,20
4.742133,1.62855,5,20
4.767144,1.617677,5,20
4.792155,1.607675,5,20
4.817165,1.597673,5,20
4.842176,1.587671,5,20
4.867187,1.577669,5,20
4.892197,1.567667,5,20
4.917208,1.557666,5,20
4.942219,1.547664,5,20
4.967229,1.537662,5,20
4.99224,1.52766,5,20
5.017251,1.517658,5,20
5.042261,1.507656,5,20
5.067272,1.497655,5,20
5.092283,1.487653,5,20
5.117293,1.477651,5,20
5.142304,1.467649,5,20
5.167315,1.457647,5,20
5.192325,1.447645,5,20
5.217336,1.437644,5,20
5.242347,1.427642,5,20
5.267358,1.41764,5,20
5.292368,1.407638,5,20
5.317379,1.397636,5,20
5.34239,1.387635,5,20
5.3674,1.377633,5,20
5.392411,1.367631,5,20
5.417422,1.357629,5,20
5.442432,1.347627,5,20
5.467443,1.337625,5,20
5.492454,1.327624,5,20
5.517464,1.31851,5,20
5.542475,1.309525,5,20
5.567486,1.300541,5,20
5.592496,1.291556,5,20
5.617507,1.282571,5,20
5.642518,1.273587,5,20
5.667528,1.264602,5,20
5.692539,1.255617,5,20
5.71755,1.246633,5,20
